139776
295038
514023
540124
540910
656553
802594
895471
1058093
1394710
1520830
1606648
1736989
2054330
2131649
2302800
2369581
2776308
2798310
2884507
2940761
3252935
3338097
3700444
3778993
4223872
4224065
4865705
4977849
5277983
5283965
5285117
5292551
5292576
5346083
7596994
7636315
7662617
7819197
7829564
7918448
8060488
8075809
8373787
8403091
8460633
8885415
9125140
9257685
9375730
9398319
9427750
9430034
9590286
9636169
9641636
9677150
9763193
9925639
9987633
10147752
10356274
10382071
10435622
10446422
10469917
10485486
10489304
10545197
10545362
10550236
10563816
10597277
10631133
10641924
10662550
10691732
10797233
10801416
10857449
11011998
11011999
11064134
11114888
11137007
11162733
11163154
11217740
11235093
11248557
11274806
11314027
11358503
11386879
11390642
11418864
11439247
11445956
11462420
11467956
11470508
11481475
11513386
11514540
11544175
11557030
11557043
11570888
11570895
11591110
11598186
11673449
11691784
11695463
11700302
11711532
11721054
11741320
11790492
11790863
11799063
11865061
11927575
11951519
12011431
12015327
12036662
12072449
12109686
12142538
12147700
12206902
12231621
12391558
12446774
12519769
12526805
12535533
12620222
12629044
12629512
12640452
12666928
12679521
12694532
12695677
12710196
12734420
12734423
12734622
12738771
12744653
12763847
12773400
12788455
12791699
12807779
12814551
12814562
12832088
12847089
12857090
12873142
12894503
12919958
12937878
12953593
12959929
12963733
12970909
13953809
14503861
14551669
14586688
14593734
14614452
14640459
14648648
14654698
14654783
14657349
14700223
14716813
14718568
14719942
14724280
14729973
14742437
14755251
14767054
14871897
14982444
14988723
14988729
14988932
15050919
15075397
15110787
15123715
15158735
15175264
15190204
15210935
15220931
15238262
15260490
15279775
15279783
15279800
15279811
15282542
15298933
15314022
15322239
15359640
15363507
15371427
15374968
15389587
15448142
15451423
15456891
15457320
15457323
15466211
15491135
15496423
15509799
15527801
15533041
15536124
15539948
15578229
15599457
15616588
15650754
15655372
15680327
15683794
15689409
15696190
15697281
15709017
15734998
15735814
15740070
15743907
15758953
15766110
15766251
15770685
15775976
15790120
15810391
15818584
15831461
15833913
15854625
15875803
15882256
15911421
15921166
15939426
15952772
15969396
15969402
15970689
15975648
15975956
15987455
15993415
16001453
16004444
16004968
16009130
16023657
16027118
16032882
16081081
16086026
16087684
16103057
16111695
16122895
16138010
16142964
16166376
16186122
16186792
16203987
16219501
16238096
16241054
16257757
16258278
16260606
16285529
16285702
16288775
16306615
16319925
16327781
16366275
16378433
16378907
16381683
16390936
16431910
16436511
16436514
16459573
16461339
16474843
16479016
16482294
16492047
16496051
16512432
16513843
16519463
16530035
16530042
16530324
16546083
16566893
16570978
16584245
16601701
16602751
16618813
16630610
16634627
16643000
16643942
16645841
16675211
16675950
16687921
16690369
16705183
16713580
16730933
16738325
16741770
16741947
16753272
16757521
16759429
16760665
16762329
16783362
16792177
16793398
16798009
16801388
16804590
16819898
16827800
16828751
16833449
16837759
16851032
16851292
16851921
16852241
16853928
16862173
16866465
16870227
16872888
16876463
16880517
16891316
16893215
16902716
16908529
16909103
16923121
16923729
16927446
16929529
16951182
16969104
16981752
16981768
17002401
17010193
17015476
17030624
17030982
17035231
17043640
17098743
17107185
17118963
17121353
17124492
17129753
17141660
17157788
17165839
17181212
17189864
17194776
17199040
17209657
17210576
17227549
17240095
17243732
17254592
17260016
17266980
17272271
17272272
17274954
17292464
17292679
17292828
17312392
17315251
17325755
17335251
17341097
17355140
17376433
17379467
17384681
17405908
17409144
17437994
17446169
17471589
17472389
17478428
17483406
17495536
17508766
17525332
17526493
17530766
17531546
17533453
17541559
17547921
17553757
17558410
17564965
17575103
17583922
17598130
17606000
17615256
17616578
17616665
17625328
17625331
17636252
17655098
17658313
17658864
17659390
17659842
17662974
17674144
17686975
17687332
17700074
17716975
17721080
17826311
17852382
17880116
17915707
17925458
17931807
17934520
17948054
17949011
17949014
17976513
17977830
17983847
17989959
18003698
18003706
18006288
18025301
18032786
18048416
18077418
18157127
18160412
18161630
18162465
18174244
18186656
18189428
18191633
18222461
18228255
18237212
18245444
18260394
18282879
18282880
18282883
18288871
18293444
18298945
18321160
18321774
18327314
18344416
18357388
18371340
18371736
18375193
18381462
18400444
18409614
18418584
18434539
18435824
18437366
18440596
18454191
18480432
18488986
18492098
18492607
18495871
18519633
18519640
18522441
18536714
18558131
18582002
18583959
18594563
18597163
18606783
18606816
18625709
18642075
18664457
18677117
18688378
18691676
18716329
18757420
18760420
18761553
18769153
18790091
18809375
18829041
18840269
18922789
18929581
18930240
18936156
18936170
18967856
18969970
18970104
18970463
18970715
18995830
19004803
19020305
19049966
19073358
19097996
19098271
19109555
19119425
19139065
19146767
19150721
19154794
19158338
19167452
19174891
19178155
19182792
19191716
19197236
19217117
19230642
19242509
19244116
19245835
19250488
19261059
19261750
19263278
19266186
19269797
19275179
19275869
19282663
19285939
19305888
19326938
19328060
19343784
19351425
19364474
19391166
19397715
19403737
19409839
19424540
19427471
19438218
19440044
19444312
19446754
19464966
19470916
19470935
19475136
19477925
19481889
19482561
19502806
19527006
19527713
19534126
19540367
19570909
19571671
19582857
19586908
19596811
19620979
19625493
19633289
19633697
19635620
19639025
19652550
19686671
19705883
19710035
19714219
19715313
19723228
19737971
19747542
19764777
19766319
19782648
19789743
19791344
19796689
19798433
19805627
19817451
19828454
19836526
19843584
19860450
19882146
19883091
19894756
19903334
19903823
19913613
19913868
19921876
19928841
19958387
19969433
20004409
20005839
20029092
20038029
20042274
20048340
20050702
20052997
20057355
20060399
20060541
20061180
20062519
20066348
20074916
20084458
20089662
20098491
20100067
20103595
20104911
20123862
20129815
20134722
20140190
20147462
20153478
20212315
20221162
20232849
20233725
20234570
20309283
20356170
20356632
20368801
20413215
20424715
20427275
20429557
20438073
20444642
20469721
20481441
20493652
20513533
20515729
20523531
20524676
20539521
20539699
20553930
20555624
20566369
20566845
20616048
20657549
20660767
20685693
20686026
20690589
20704253
20715270
20715904
20727354
20801936
20802463
20804983
20810650
20818375
20822117
20832078
20833103
20840867
20847938
20857283
20857976
20861269
20876831
20882383
20888899
20924623
20947357
20973577
20978686
21028770
21034966
21036018
21036674
21069299
21070964
21098704
21116610
21123655
21125576
21144818
21144835
21210025
21224401
21235255
21236416
21242293
21248719
21249341
21258400
21258677
21273599
21284603
21285353
21293799
21295367
21301226
21319823
21329354
21330115
21332169
21350773
21352654
21383502
21390062
21395289
21396192
21413798
21428947
21438509
21446705
21457993
21465601
21471554
21472431
21477346
21490603
21491655
21502314
21503326
21552262
21566061
21591776
21615334
21620884
21627143
21643554
21651043
21659603
21662817
21678773
21680529
21705319
21714231
21714243
21730979
21734984
21740638
21777809
21819778
21819779
21820372
21826105
21827466
21829571
21844338
21857991
21859891
21865098
21866968
21870292
21908846
21909561
21929856
21929857
21937510
21964809
21971204
21976111
21981266
21986076
21988337
21995812
21998290
22018494
22024169
22029689
22035984
22078264
22081885
22084169
22095698
22113850
22113892
22123827
22123968
22133876
22153337
22158468
22159421
22174788
22178001
22178412
22179839
22188649
22191814
22216939
22246314
22257280
22257712
22258451
22266795
22268149
22272722
22274536
22286017
22302936
22315101
22315193
22319212
22341969
22345493
22357613
22361662
22364689
22382637
22395819
22399200
22399810
22402479
22409155
22454583
22465768
22472205
22494686
22508511
22517608
22532598
22538090
22556425
22571845
22578108
22613124
22621920
22652217
22688030
22713662
22715763
22722496
22728584
22732540
22735644
22744536
22761595
22768182
22772671
22782075
22797063
22801463
22807682
22825331
22842784
22854681
22874013
22921126
22922797
22948311
22952448
22977173
22985265
23009287
23010120
23029527
23039116
23052879
23078043
23079042
23085754
23097436
23111928
23135710
23136883
23144622
23145785
23146187
23157317
23163643
23178497
23184354
23201348
23222511
23237049
23242495
23272087
23273981
23277290
23278849
23291036
23297361
23307868
23318153
23318774
23345434
23346553
23353580
23361398
23368512
23371487
23371532
23374437
23383325
23394205
23395969
23400222
23401567
23404277
23414555
23419189
23421846
23422165
23422745
23428880
23434802
23436801
23438602
23447674
23447702
23451157
23454212
23468117
23479505
23496892
23515347
23537388
23548269
23582259
23583268
23592994
23600770
23605770
23618301
23622434
23643045
23683050
23684611
23685799
23696651
23698467
23723247
23727573
23733185
23735252
23739596
23746423
23748488
23754435
23755068
23758785
23775120
23784839
23807050
23807228
23810849
23813879
23824539
23825959
23837615
23844225
23849791
23861882
23871060
23873943
23874235
23876733
23876970
23895580
23897887
23902647
23912341
23913720
23928299
23933552
23934411
23936058
23947918
23950734
23953475
23953933
23957297
23960094
23962067
23971741
23973373
23985484
24003211
24005565
24038466
24045107
24054644
24061366
24067568
24091330
24091347
24098119
24137535
24142626
24142876
24150948
24160876
24161861
24176339
24185825
24227155
24238855
24240236
24244195
24255913
24262491
24267891
24268773
24283377
24299761
24300186
24323289
24327542
24332808
24350328
24357557
24359653
24359657
24359662
24360449
24360480
24370400
24370412
24387240
24395599
24405958
24434699
24440306
24441772
24443570
24457621
24489120
24509287
24553354
24583858
24631100
24634213
24639502
24652067
24662920
24666279
24672057
24675793
24682951
24694934
24700029
24726882
24727403
24751273
24793877
24799566
24801351
24810715
24832964
24859052
24876101
24900732
24901225
24918103
24928132
24937213
24945861
24947324
24950143
24950377
24965470
24972086
24990965
24991511
24996322
25000568
25003641
25010037
25054585
25083873
25086719
25091155
25097400
25116420
25123905
25145844
25145919
25172681
25174396
25232030
25236219
25248046
25249323
25249630
25256748
25269479
25281067
25288669
25301733
25301947
25306340
25317204
25330994
25336189
25344324
25380827
25386925
25397632
25459351
25459630
25460107
25468710
25474902
25476739
25483091
25497328
25512053
25527408
25533186
25542584
25551359
25560806
25561503
25565400
25566312
25588210
25589927
25589928
25590437
25597668
25602520
25612540
25620475
25654140
25659533
25659707
25675824
25686660
25703014
25752575
25784938
25790472
25793418
25800873
25811925
25812484
25832726
25838540
25843623
25868852
25892829
25903443
25904336
25910459
25911100
25916848
25916852
25925069
25925091
25940865
25944716
25961007
25965305
25965342
25965501
25965828
25966274
25980679
25994639
26000719
26022782
26023162
26061106
26061604
26061708
26090781
26144601
26152556
26159572
26162559
26168232
26174141
26194899
26195028
26209650
26212458
26225562
26246317
26257651
26261078
26266701
26286029
26291114
26305344
26310312
26312880
26319636
26320227
26338538
26362996
26365377
26366731
26367864
26373644
26387736
26388226
26415431
26421938
26438152
26438264
26449320
26449810
26466883
26471606
26483799
26485758
26486089
26488803
26517239
26563132
26565033
26567218
26572502
26577131
26586433
26592648
26595742
26595875
26604007
26620371
26647047
26647055
26657501
26674120
26675548
26683224
26695634
26701146
26717744
26717839
26722253
26725502
26743489
26748709
26755646
26767638
26767642
26778124
26794944
26804177
26804934
26819818
26826366
26843528
26854234
26859465
26862594
26874854
26882028
26887372
26904846
26908596
26921499
26929982
26940878
26959506
26960975
26964211
26968569
26979625
26986192
26992492
27000994
27006208
27006210
27007740
27029031
27043008
27067599
27078751
27089217
27111843
27113759
27118104
27122410
27129245
27129363
27131875
27145275
27177826
27235459
27246979
27280857
27283761
27295852
27308506
27314226
27354402
27354403
27391441
27397856
27400503
27406925
27412186
27436546
27442013
27458735
27462424
27463284
27470880
27472395
27493550
27493853
27501113
27507567
27513683
27527104
27541800
27569772
27577084
27598437
27599193
27602331
27617969
27625305
27643467
27643582
27673446
27683220
27692380
27693461
27708213
27713304
27720876
27722532
27722623
27723717
27740938
27743911
27744063
27764728
27776315
27784903
27788472
27803059
27818175
27821664
27836284
27837882
27845181
27864445
27874177
27897159
27900373
27921101
27933774
27958275
27977911
27979966
27993965
28009306
28013460
28017652
28017990
28031537
28036033
28056409
28062704
28067340
28070078
28070445
28073021
28075014
28089683
28105970
28106475
28107012
28108328
28115467
28119182
28123024
28131712
28138034
28145510
28153896
28157626
28176818
28187317
28188353
28193414
28195382
28213176
28213242
28215564
28228262
28242626
28250314
28256818
28264028
28273450
28273463
28298679
28314205
28314779
28325772
28329680
28335608
28340743
28345386
28363999
28372210
28386512
28388786
28392514
28392515
28409627
28431234
28433539
28440428
28448462
28454077
28467896
28479198
28485613
28485640
28490077
28490118
28516572
28551449
28556304
28585894
28592488
28606335
28608753
28622525
28622543
28653218
28662958
28663552
28666352
28689077
28691808
28697853
28698210
28710789
28723592
28738663
28740603
28753641
28755370
28759848
28774052
28777003
28780613
28796244
28808226
28808232
28811666
28820634
28821964
28827813
28837803
28841989
28851706
28852813
28854796
28857201
28884772
28886757
28888173
28911672
28915641
28920605
28921800
28942528
28962138
28963069
28967484
28974760
28986085
29019249
29020638
29022355
29031123
29031292
29035555
29037668
29038346
29038589
29049987
29054375
29057300
29097844
29103989
29111814
29115300
29121679
29123096
29124689
29134721
29138515
29157079
29163782
29168522
29170278
29179029
29191911
29209046
29209060
29215887
29216516
29240074
29242514
29247012
29252124
29253012
29263259
29265907
29271416
29279380
29297909
29301856
29309644
29342268
29344638
29348879
29353483
29359084
29378830
29378956
29395061
29395933
29396668
29411920
29424551
29428810
29433226
29435105
29439152
29449168
29454252
29459260
29475714
29485113
29486184
29491872
29496404
29497215
29497718
29501003
29505939
29522992
29531322
29542745
29548454
29568371
29569647
29605721
29614752
29629209
29643533
29658881
29670686
29685176
29695073
29696270
29698658
29704517
29716131
29720169
29720710
29723538
29723750
29725502
29744828
29753759
29758511
29759113
29778711
29784412
29789314
29799588
29799875
29849128
29854893
29863497
29879641
29886369
29890208
29891488
29893584
29899143
29899559
29909278
29909455
29928473
29934161
29952768
29966946
29972319
29976630
29976923
29977027
29981829
29989634
30001349
30010936
30023777
30035872
30035883
30053360
30054334
30057890
30072798
30073210
30082315
30084861
30086524
30094103
30096732
30104465
30108746
30127241
30130531
30132006
30139873
30166399
30177164
30184498
30195692
30198667
30199583
30202398
30254676
30257222
30263764
30265735
30266823
30270940
30292366
30293786
30297842
30309575
30315225
30317028
30317440
30320850
30327428
30346772
30349991
30352678
30353745
30361254
30362123
30385821
30410668
30416649
30427922
30429199
30445466
30449089
30456359
30457346
30457585
30458104
30484797
30488286
30502159
30512958
30514066
30515577
30521655
30530109
30532030
30536079
30537090
30541148
30542682
30553205
30559436
30563229
30591638
30610294
30638754
30639599
30645202
30654633
30666155
30676723
30684879
30693543
30733838
30742170
30744434
30746633
30755469
30758356
30770349
30776719
30785047
30787154
30832846
30840470
30846821
30849143
30869675
30876552
30892621
30897475
30900769
30911838
30940728
30941412
30943494
30965685
30975033
30986969
30987998
30990066
30992499
31005154
31006458
31006461
31014753
31015193
31020420
31030044
31032337
31054162
31060308
31060354
31067464
31074988
31080550
31089345
31094512
31114877
31123088
31141782
31147720
31147759
31151616
31164689
31170670
31172274
31172988
31186587
31189884
31200472
31209037
31219336
31255683
31255687
31255703
31261701
31266951
31273061
31299005
31302128
31332096
31337072
31340146
31345392
31349966
31357273
31388677
31388794
31405847
31422338
31428617
31431503
31450424
31471531
31487193
31489491
31492012
31506018
31509190
31514870
31529615
31533931
31554014
31557599
31582533
31582797
31589169
31594931
31596327
31597673
31601897
31606099
31609106
31614688
31615875
31618626
31624858
31628577
31646050
31646648
31649026
31674832
31683504
31683589
31687572
31695712
31700693
31706110
31708417
31708464
31729875
31735068
31748152
31753646
31753650
31753655
31757956
31779191
31791498
31805725
31814056
31820962
31836456
31839711
31862653
31865413
31865638
31870877
31877706
31902825
31903757
31912966
31913317
31924595
31943426
31944448
31951940
31968257
31999389
32001675
32002668
32005695
32013837
32015826
32034588
32052586
32060401
32069060
32071277
32085572
32089770
32098452
32104176
32106028
32109490
32114161
32117957
32118340
32122495
32127357
32140593
32153612
32159854
32163370
32180621
32180639
32193128
32194167
32200231
32204506
32226614
32231044
32243161
32247254
32248033
32249246
32250473
32253699
32272809
32274430
32277292
32278436
32282717
32299036
32304723
32311864
32312460
32316154
32316968
32317623
32326085
32330809
32344549
32347712
32349404
32353258
32354033
32358582
32366852
32369697
32385593
32387957
32388235
32391822
32403075
32414408
32426354
32429482
32444488
32444694
32455667
32456796
32459662
32461345
32463546
32469508
32469931
32472144
32484965
32485587
32492899
32494026
32497994
32502336
32503271
32522823
32529408
32541066
32542389
32542440
32543977
32545536
32546832
32562343
32568634
32569943
32592909
32604046
32605100
32610215
32619464
32619939
32634766
32638256
32640722
32647962
32675286
32690724
32709856
32712628
32717649
32725817
32729622
32741974
32743550
32745905
32778712
32788179
32802099
32817543
32823662
32827908
32829154
32861204
32869788
32870685
32877678
32887068
32895882
32905108
32911078
32914122
32917854
32926932
32971782
32973141
32973933
32977106
32984322
32988960
33025183
33037083
33038858
33054085
33087827
33091128
33101488
33104671
33107870
33134898
33134924
33137164
33141124
33144657
33145616
33147961
33159100
33165827
33166573
33169019
33169173
33172976
33176972
33198069
33205420
33214678
33218970
33259832
33262506
33264997
33268569
33321672
33335142
33351793
33352723
33354666
33371411
33375521
33397932
33415107
33425022
33427452
33432091
33438602
33443423
33450002
33462938
33465281
33481583
33494010
33498340
33502006
33503405
33513721
33536335
33540312
33546122
33556369
33562837
33565180
33567339
33572096
33575125
33578950
33580831
33583031
33621936
33635101
33636182
33644595
33653945
33664846
33672884
33673072
33679636
33686394
33686847
33704589
33709793
33723735
33724288
33730672
33742106
33743824
33745946
33764556
33768209
33773748
33774416
33782497
33794142
33811702
33820915
33825490
33831457
33838812
33848395
33848478
33851958
33854565
33861065
33881057
33884660
33887296
33896075
33908020
33918458
33931924
33933939
33952527
33961890
33967328
33985672
33987368
34000635
34003779
34027408
34031722
34040174
34040175
34043345
34045232
34051637
34053555
34061244
34064641
34074749
34082024
34086963
34088116
34088137
34088945
34103635
34106972
34110943
34119979
34130007
34136888
34146828
34151669
34163832
34168048
34172499
34181388
34195877
34196870
34197737
34198619
34202224
34204447
34210973
34218139
34225755
34237903
34247048
34261773
34274441
34279898
34283072
34296229
34296756
34300791
34301752
34301763
34316685
34329458
34329853
34332310
34333533
34336359
34352501
34359377
34359691
34364433
34375629
34382094
34384995
34388807
34406779
34407236
34413128
34417644
34441584
34441625
34441727
34443424
34459993
34473946
34474677
34494488
34502918
34504137
34518240
34519926
34521752
34527850
34536128
34538898
34552099
34562950
34566412
34572827
34587992
34597910
34599168
34601817
34619333
34620496
34620977
34622231
34622778
34625935
34627881
34632014
34632221
34635702
34636233
34637180
34640761
34641608
34644155
34649123
34660289
34660320
34662939
34663432
34669460
34676045
34678268
34685967
34699174
34715922
34718956
34731567
34736053
34736855
34749258
34761382
34761497
34777003
34791445
34796173
34802652
34805457
34816272
34819497
34819597
34822714
34829893
34833185
34833984
34857765
34878756
34884190
34897841
34903965
34909652
34911817
34918968
34944835
34948185
34964992
34969765
34972063
34990920
34995300
34995978
35001778
35004241
35011623
35013790
35022212
35024716
35032761
35051781
35059327
35065580
35066692
35071906
35077982
35078817
35081148
35081773
35103307
35133274
35133275
35150325
35154866
35159268
35176943
35178190
35182941
35183872
35187743
35191521
35191694
35193002
35210823
35215720
35220053
35228082
35236186
35245663
35257986
35259479
35281766
35287310
35295923
35301407
35334397
35343541
35348139
35361811
35373139
35388070
35388386
35405324
35406579
35422308
35439320
35458687
35476521
35480096
35490781
35493915
35503275
35507041
35517334
35519255
35520865
35524559
35526439
35530159
35530299
35531873
35535883
35589192
35598808
35598927
35612306
35632048
35637251
35644389
35653809
35662049
35675738
35681427
35682654
35687697
35698423
35698544
35707272
35711824
35712480
35713715
35715370
35715878
35721505
35735526
35740300
35741017
35754741
35763946
35779475
35786717
35802594
35803016
35803050
35812053
35830811
35847300
35850044
35879366
35886852
35889508
35896885
35902562
35917981
35921524
35930311
35932844
35939823
35951367
35954206
35957613
35966272
35999282
36009859
36012478
36041267
36050501
36077384
36079369
36080384
36081195
36084582
36092630
36126622
36130512
36137547
36145524
36161901
36174400
36175395
36196914
36200829
36215751
36233001
36233197
36234838
36249060
36251015
36253880
36260706
36271573
36273275
36273492
36273494
36283204
36306362
36366058
36373784
36381271
36387237
36396855
36400011
36413415
36417502
36429266
36442341
36442528
36462444
36463336
36470017
36481535
36497387
36508076
36526443
36539893
36551243
36552003
36558023
36558434
36559526
36604210
36618042
36619407
36632063
36644397
36657351
36672447
36677623
36677625
36682440
36720190
36735915
36748530
36749285
36768638
36769997
36771825
36777513
36782055
36789805
36794257
36801543
36801728
36810257
36828464
36835578
36835712
36842109
36850324
36855844
36869427
36878136
36889977
36892423
36892634
36929034
36967009
36993263
36996117
37024481
37032184
37034259
37041670
37048111
37050673
37059162
37071536
37079339
37086581
37087441
37097390
37097611
37125721
37130473
37140048
37144518
37150899
37159556
37163376
37189251
37189497
37189545
37201767
37216274
37227155
37232208
37237279
37256140
37259134
37269660
37270643
37292881
37298997
37302542
37303513
37327724
37331041
37336885
37338595
37346039
37347297
37349788
37354461
37364425
37375138
37375216
37375260
37376543
37378325
37378431
37385965
37392383
37392540
37398210
37408221
37417337
37432066
37433295
37440910
37454295
37454437
37460393
37470700
37478760
37480741
37491889
37496212
37511442
37511652
37517142
37527013
37531716
37560219
37569123
37571060
37571739
37591859
37606297
37623312
37639904
37647215
37662356
37688884
37714109
37726341
37734571
37750664
37755764
37760022
37762228
37771090
37773176
37775817
37778414
37788673
37791361
37802411
37802502
37806848
37810994
37818681
37831098
37832547
37834346
37836721
37837928
37841875
37853668
37863026
37872647
37877252
37882063
37883509
37896375
37898670
37902083
37919384
37930853
37932011
37932012
37934325
37934611
37936324
37959713
37961201
37970365
37974379
37978140
37980281
37988599
37995652
38006870
38007596
38007869
38011941
38032106
38041093
38042146
38045423
38047927
38056185
38056589
38063458
38067190
38093706
38101254
38104870
38105537
38114660
38124786
38137027
38154064
38164802
38169561
38177310
38191742
38195460
38197544
38198436
38201143
38213834
38220014
38223171
38227740
38230843
38233221
38235705
38254546
38262536
38264270
38266599
38277787
38284762
38287179
38287893
38293680
38297083
38299539
38301577
38305978
38308949
38318945
38323628
38325007
38326519
38342817
38349040
38359122
38365669
38366163
38366255
38378898
38394884
38402224
38410486
38421209
38433368
38438016
38442236
38445553
38445554
38466804
38467834
38472229
38474014
38475864
38488012
38505133
38506712
38520049
38539474
38553623
38554113
38562878
38584348
38596500
38634707
38635934
38639844
38662138
38669256
38686738
38695641
38696214
38710487
38714421
38721777
38728896
38735668
38743253
38756373
38763020
38782275
38786089
38788960
38796310
38804156
38810333
38820279
38821024
38824755
38827321
38839993
38861280
38863496
38865886
38867801
38868105
38869290
38872958
38880245
38909557
38915330
38941757
38963451
38965423
38970714
38976130
38976561
38985197
38990295
39023692
39024734
39026771
39029200
39032237
39035940
39040335
39048930
39049757
39053006
39055884
39063060
39068844
39073396
39081276
39083088
39089116
39096697
39100304
39108493
39109923
39113735
39116507
39117290
39123523
39128273
39134540
39136618
39143357
39146620
39148723
39162061
39173321
39180968
39187637
39213806
39215871
39235982
39271497
39284240
39299706
39300906
39306914
39310137
39330477
39331709
39341479
39343349
39347409
39353535
39354719
39357174
39362289
39376248
39379134
39380841
39395276
39400329
39407580
39407679
39411143
39422183
39422899
39427557
39439051
39446166
39447295
39456630
39459017
39461083
39461278
39471331
39479723
39492667
39492910
39518482
39518560
39520887
39536668
39557132
39560095
39565137
39589985
39597707
39598058
39605722
39612569
39613844
39623140
39623941
39630604
39675575
39679599
39689762
39716379
39723531
39730498
39740081
39747723
39778262
39779698
39796841
39797018
39797133
39822940
39833276
39838187
39841295
39848976
39849695
39852459
39853769
39861096
39868202
39874630
39875375
39875558
39900180
39936528
39939726
39951537
39968096
39977959
39991033
40000599
40012043
40020899
40024083
40029060
40052411
40052822
40055084
40063694
40081301
40088750
40088763
40105243
